106961.0,100239.0
107019.0,100245.0
107020.0,100259.0
107039.0,100250.0
107092.0,100269.0
107070.0,100282.0
107114.0,100278.0
107138.0,100262.0
107152.0,100296.0
107186.0,100303.0
107194.0,100298.0
107228.0,100308.0
107209.0,100321.0
107264.0,100322.0
107262.0,100318.0
107262.0,100348.0
107309.0,100349.0
107324.0,100335.0
107317.0,100360.0
107373.0,100370.0
107377.0,100361.0
107380.0,100377.0
107436.0,100387.0
107452.0,100383.0
107447.0,100408.0
107483.0,100417.0
107502.0,100412.0
107504.0,100429.0
107540.0,100429.0
107547.0,100427.0
107528.0,100440.0
107577.0,100444.0
107585.0,100446.0
107577.0,100453.0
107601.0,100463.0
107606.0,100454.0
107601.0,100453.0
107625.0,100461.0
107632.0,100454.0
107606.0,100464.0
107633.0,100461.0
107645.0,100461.0
107636.0,100466.0
107662.0,100474.0
107675.0,100473.0
107658.0,100476.0
107674.0,100469.0
107699.0,100474.0
107685.0,100482.0
107700.0,100488.0
107739.0,100506.0
107732.0,100499.0
107757.0,100503.0
107795.0,100491.0
107778.0,100520.0
107794.0,100528.0
107830.0,100511.0
107832.0,100529.0
107831.0,100525.0
107860.0,100520.0
107821.0,100531.0
107812.0,100526.0
107826.0,100506.0
107764.0,100495.0
107693.0,100456.0
107593.0,100413.0
107468.0,100357.0
107276.0,100284.0
107114.0,100236.0
106973.0,100190.0
106821.0,100141.0
106721.0,100100.0
106633.0,100079.0
106560.0,100056.0
106545.0,100047.0
106481.0,100044.0
106467.0,100040.0
106485.0,100036.0
106445.0,100034.0
106446.0,100042.0
106496.0,100035.0
106476.0,100043.0
106491.0,100038.0
106555.0,100050.0
106523.0,100070.0
106548.0,100064.0
106610.0,100085.0
106601.0,100086.0
106649.0,100087.0
106671.0,100093.0
106666.0,100116.0
106686.0,100099.0
106740.0,100127.0
106747.0,100134.0
106791.0,100141.0
106787.0,100160.0
106826.0,100152.0
106866.0,100182.0
106891.0,100183.0
106944.0,100199.0
106935.0,100222.0
106986.0,100217.0
107023.0,100242.0
107031.0,100246.0
107084.0,100252.0
107058.0,100262.0
107093.0,100247.0
107096.0,100274.0
107083.0,100249.0
107108.0,100250.0
107081.0,100253.0
107067.0,100228.0
107066.0,100253.0
107030.0,100224.0
107054.0,100239.0
107015.0,100243.0
107012.0,100203.0
107008.0,100228.0
106994.0,100215.0
107028.0,100218.0
107001.0,100224.0
107020.0,100199.0
107007.0,100226.0
107004.0,100207.0
107042.0,100227.0
106993.0,100230.0
107025.0,100203.0
107026.0,100215.0
107032.0,100216.0
107062.0,100238.0
107051.0,100231.0
107087.0,100229.0
107070.0,100265.0
107104.0,100273.0
107153.0,100258.0
107150.0,100284.0
107168.0,100292.0
107236.0,100288.0
107232.0,100314.0
107250.0,100321.0
107319.0,100325.0
107302.0,100340.0
107327.0,100352.0
107366.0,100345.0
107362.0,100361.0
107376.0,100367.0
107427.0,100362.0
107395.0,100384.0
107426.0,100391.0
107470.0,100381.0
107468.0,100393.0
107487.0,100399.0
107534.0,100412.0
107531.0,100420.0
107534.0,100428.0
107591.0,100422.0
107560.0,100426.0
107571.0,100437.0
107612.0,100429.0
107595.0,100437.0
107621.0,100423.0
107644.0,100413.0
107632.0,100442.0
107650.0,100433.0
107660.0,100463.0
107700.0,100467.0
107691.0,100451.0
107680.0,100474.0
107715.0,100470.0
107702.0,100457.0
107702.0,100467.0
107744.0,100485.0
107733.0,100483.0
107726.0,100492.0
107751.0,100487.0
107757.0,100482.0
107744.0,100488.0
107760.0,100496.0
107766.0,100483.0
107757.0,100488.0
107789.0,100502.0
107794.0,100508.0
107780.0,100525.0
107829.0,100514.0
107844.0,100513.0
107827.0,100519.0
107876.0,100539.0
107869.0,100525.0
107854.0,100541.0
107873.0,100528.0
107893.0,100532.0
107867.0,100536.0
107875.0,100530.0
107886.0,100525.0
107866.0,100522.0
107860.0,100516.0
107846.0,100488.0
107784.0,100481.0
107675.0,100425.0
107624.0,100418.0
107446.0,100365.0
107256.0,100269.0
107156.0,100244.0
106984.0,100187.0
106845.0,100115.0
106790.0,100118.0
106691.0,100082.0
106611.0,100046.0
106601.0,100060.0
106557.0,100052.0
106536.0,100011.0
106539.0,100035.0
106535.0,100032.0
106534.0,100021.0
106570.0,100059.0
106596.0,100059.0
106594.0,100056.0
106619.0,100076.0
106656.0,100094.0
106694.0,100081.0
106728.0,100119.0
106747.0,100133.0
106782.0,100117.0
106800.0,100146.0
106844.0,100157.0
106865.0,100143.0
106881.0,100176.0
106914.0,100180.0
106948.0,100168.0
106979.0,100210.0
107024.0,100218.0
107065.0,100221.0
107082.0,100241.0
107139.0,100267.0
107162.0,100259.0
107219.0,100287.0
107201.0,100295.0
107263.0,100299.0
107265.0,100292.0
107258.0,100310.0
107284.0,100324.0
107267.0,100296.0
107258.0,100302.0
107266.0,100299.0
107234.0,100282.0
107199.0,100287.0
107198.0,100282.0
107169.0,100265.0
107147.0,100270.0
107171.0,100268.0
107142.0,100251.0
107127.0,100261.0
107148.0,100262.0
107143.0,100259.0
107134.0,100265.0
107148.0,100273.0
107172.0,100263.0
107160.0,100268.0
107195.0,100281.0
107201.0,100279.0
107194.0,100287.0
107211.0,100284.0
107222.0,100290.0
107230.0,100296.0
107245.0,100293.0
107256.0,100308.0
107253.0,100306.0
107275.0,100304.0
107305.0,100313.0
107290.0,100326.0
107307.0,100329.0
107350.0,100296.0
107345.0,100324.0
107365.0,100331.0
107405.0,100351.0
107386.0,100347.0
107436.0,100340.0
107423.0,100370.0
107445.0,100374.0
107492.0,100362.0
107473.0,100389.0
107488.0,100389.0
107542.0,100394.0
107521.0,100400.0
107533.0,100406.0
107571.0,100392.0
107559.0,100412.0
107584.0,100420.0
107623.0,100415.0
107596.0,100426.0
107610.0,100439.0
107664.0,100432.0
107636.0,100450.0
107649.0,100453.0
107687.0,100443.0
107661.0,100457.0
107669.0,100462.0
107714.0,100459.0
107674.0,100461.0
107692.0,100464.0
107737.0,100458.0
107706.0,100464.0
107712.0,100463.0
107747.0,100474.0
107709.0,100463.0
107727.0,100467.0
107762.0,100467.0
107727.0,100477.0
107743.0,100465.0
107780.0,100482.0
107784.0,100463.0
107791.0,100468.0
107771.0,100485.0
107790.0,100462.0
107825.0,100502.0
107812.0,100496.0
107833.0,100474.0
107828.0,100507.0
107828.0,100493.0
107840.0,100507.0
107815.0,100498.0
107832.0,100493.0
107794.0,100492.0
107750.0,100447.0
107741.0,100461.0
107612.0,100414.0
107552.0,100364.0
107412.0,100314.0
107239.0,100249.0
107137.0,100223.0
106962.0,100153.0
106905.0,100127.0
106783.0,100091.0
106697.0,100048.0
106653.0,100067.0
106579.0,100024.0
106578.0,100019.0
106529.0,100028.0
106523.0,99989.0
106517.0,100019.0
106502.0,100002.0
106529.0,100014.0
106514.0,100025.0
106541.0,100014.0
106542.0,100032.0
106560.0,100021.0
106597.0,100056.0
106582.0,100048.0
106638.0,100037.0
106636.0,100075.0
106666.0,100088.0
106711.0,100069.0
106699.0,100090.0
106730.0,100088.0
106783.0,100119.0
106779.0,100128.0
106791.0,100118.0
106830.0,100132.0
106855.0,100148.0
106877.0,100156.0
106931.0,100182.0
106957.0,100223.0
106987.0,100211.0
107062.0,100208.0
107040.0,100240.0
107094.0,100252.0
107135.0,100254.0
107112.0,100257.0
107125.0,100262.0
107167.0,100243.0
107129.0,100261.0
107119.0,100252.0
107143.0,100240.0
107111.0,100246.0
107100.0,100233.0
107119.0,100237.0
107066.0,100234.0
107050.0,100222.0
107074.0,100220.0
107043.0,100216.0
107030.0,100216.0
107046.0,100218.0
107028.0,100213.0
107031.0,100197.0
107076.0,100219.0
107044.0,100219.0
107079.0,100228.0
107102.0,100209.0
107100.0,100244.0
107127.0,100232.0
107166.0,100258.0
107166.0,100253.0
107211.0,100260.0
107183.0,100280.0
107222.0,100263.0
107261.0,100288.0
107256.0,100294.0
107296.0,100301.0
107285.0,100327.0
107327.0,100307.0
107370.0,100337.0
107361.0,100330.0
107413.0,100334.0
107393.0,100352.0
107429.0,100335.0
107466.0,100363.0
107464.0,100353.0
107509.0,100373.0
107489.0,100390.0
107521.0,100356.0
107536.0,100396.0
107541.0,100374.0
107567.0,100396.0
107557.0,100406.0
107582.0,100374.0
107579.0,100408.0
107587.0,100388.0
107633.0,100407.0
107605.0,100426.0
107626.0,100392.0
107644.0,100432.0
107641.0,100407.0
107663.0,100436.0
107635.0,100422.0
107683.0,100407.0
107654.0,100435.0
107659.0,100422.0
107694.0,100430.0
107686.0,100435.0
107676.0,100420.0
107716.0,100453.0
107707.0,100456.0
107723.0,100427.0
107750.0,100460.0
107752.0,100473.0
107752.0,100453.0
107770.0,100469.0
107782.0,100471.0
107776.0,100453.0
107807.0,100492.0
107810.0,100487.0
107800.0,100458.0
107818.0,100488.0
107819.0,100487.0
107820.0,100455.0
107826.0,100498.0
107840.0,100489.0
107835.0,100466.0
107850.0,100492.0
107854.0,100500.0
107856.0,100469.0
107856.0,100498.0
107849.0,100488.0
107830.0,100445.0
107800.0,100471.0
107746.0,100447.0
107652.0,100388.0
107558.0,100380.0
107403.0,100290.0
107208.0,100226.0
107133.0,100205.0
106966.0,100152.0
106897.0,100097.0
106804.0,100083.0
106702.0,100060.0
106696.0,100046.0
106620.0,100026.0
106591.0,100003.0
106563.0,100019.0
106542.0,99992.0
106578.0,100018.0
106546.0,100005.0
106558.0,100006.0
106550.0,100017.0
106575.0,100003.0
106589.0,100029.0
106588.0,100021.0
106653.0,100047.0
106628.0,100062.0
106673.0,100038.0
106707.0,100084.0
106723.0,100078.0
106773.0,100094.0
106764.0,100114.0
106814.0,100091.0
106834.0,100130.0
106836.0,100116.0
106902.0,100136.0
106896.0,100156.0
106930.0,100142.0
106953.0,100166.0
107001.0,100163.0
107048.0,100198.0
107062.0,100227.0
107121.0,100206.0
107164.0,100250.0
107199.0,100250.0
107250.0,100265.0
107249.0,100279.0
107292.0,100260.0
107287.0,100285.0
107287.0,100267.0
107323.0,100297.0
107286.0,100290.0
107295.0,100264.0
107261.0,100276.0
107246.0,100259.0
107253.0,100256.0
107208.0,100254.0
107178.0,100226.0
107185.0,100248.0
107163.0,100239.0
107124.0,100217.0
107136.0,100229.0
107134.0,100225.0
107120.0,100210.0
107138.0,100231.0
107140.0,100235.0
107140.0,100205.0
107171.0,100240.0
107182.0,100249.0
107188.0,100230.0
107211.0,100249.0
107230.0,100262.0
107245.0,100243.0
107260.0,100281.0
107289.0,100285.0
107290.0,100259.0
107301.0,100289.0
107331.0,100293.0
107345.0,100283.0
107355.0,100317.0
107382.0,100307.0
107399.0,100298.0
107413.0,100333.0
107450.0,100348.0
107467.0,100347.0
107518.0,100366.0
107502.0,100364.0
107550.0,100372.0
107579.0,100352.0
107575.0,100389.0
107584.0,100382.0
107626.0,100398.0
107635.0,100401.0
107654.0,100391.0
107643.0,100414.0
107653.0,100396.0
107688.0,100429.0
107685.0,100424.0
107699.0,100407.0
107693.0,100429.0
107706.0,100412.0
107730.0,100433.0
107713.0,100425.0
107750.0,100425.0
107716.0,100441.0
107714.0,100410.0
107749.0,100442.0
107722.0,100437.0
107756.0,100431.0
107735.0,100448.0
107754.0,100425.0
107762.0,100453.0
107740.0,100431.0
107777.0,100440.0
107745.0,100447.0
107761.0,100433.0
107771.0,100447.0
107774.0,100443.0
107806.0,100462.0
107781.0,100469.0
107804.0,100440.0
107815.0,100474.0
107820.0,100459.0
107852.0,100477.0
107820.0,100487.0
107862.0,100447.0
107862.0,100469.0
107840.0,100461.0
107879.0,100478.0
107835.0,100478.0
107864.0,100464.0
107861.0,100480.0
107852.0,100457.0
107864.0,100467.0
107812.0,100460.0
107781.0,100419.0
107719.0,100416.0
107622.0,100371.0
107500.0,100308.0
107363.0,100271.0
107178.0,100194.0
107061.0,100151.0
106936.0,100117.0
106815.0,100075.0
106744.0,100036.0
106670.0,100027.0
106605.0,100011.0
106595.0,99994.0
106540.0,99987.0
106516.0,99989.0
106543.0,99985.0
106515.0,100000.0
106509.0,99989.0
106551.0,99994.0
106537.0,100000.0
106554.0,100011.0
106609.0,100008.0
106594.0,100035.0
106616.0,100041.0
106671.0,100036.0
106662.0,100064.0
106702.0,100075.0
106750.0,100079.0
106722.0,100075.0
106747.0,100083.0
106815.0,100090.0
106788.0,100097.0
106841.0,100105.0
106867.0,100093.0
106871.0,100124.0
106922.0,100112.0
106915.0,100161.0
106991.0,100166.0
107020.0,100159.0
107036.0,100189.0
107086.0,100200.0
107092.0,100198.0
107087.0,100205.0
107123.0,100210.0
107128.0,100198.0
107108.0,100209.0
107126.0,100209.0
107097.0,100196.0
107077.0,100188.0
107098.0,100195.0
107068.0,100187.0
107031.0,100182.0
107038.0,100175.0
107033.0,100169.0
107021.0,100170.0
107028.0,100184.0
107026.0,100174.0
107019.0,100170.0
107034.0,100176.0
107050.0,100174.0
107040.0,100190.0
107055.0,100185.0
107078.0,100180.0
107073.0,100195.0
107100.0,100195.0
107117.0,100207.0
107096.0,100213.0
107117.0,100213.0
107168.0,100221.0
107176.0,100228.0
107189.0,100234.0
107251.0,100230.0
107235.0,100247.0
107264.0,100241.0
107308.0,100272.0
107295.0,100284.0
107348.0,100259.0
107349.0,100286.0
107370.0,100285.0
107415.0,100305.0
107405.0,100302.0
107458.0,100305.0
107441.0,100328.0
107468.0,100336.0
107512.0,100333.0
107510.0,100347.0
107512.0,100361.0
107564.0,100354.0
107541.0,100365.0
107559.0,100375.0
107602.0,100365.0
107582.0,100389.0
107596.0,100391.0
107637.0,100390.0
107629.0,100390.0
107638.0,100389.0
107668.0,100392.0
107648.0,100409.0
107660.0,100410.0
107698.0,100401.0
107673.0,100422.0
107668.0,100413.0
107725.0,100422.0
107691.0,100423.0
107708.0,100425.0
107768.0,100421.0
107731.0,100434.0
107767.0,100434.0
107772.0,100402.0
107788.0,100432.0
107797.0,100436.0
107799.0,100424.0
107839.0,100454.0
107805.0,100451.0
107854.0,100455.0
107842.0,100436.0
107840.0,100472.0
107854.0,100464.0
107869.0,100443.0
107878.0,100476.0
107877.0,100463.0
107862.0,100481.0
107906.0,100492.0
107904.0,100471.0
107901.0,100486.0
107901.0,100496.0
107881.0,100469.0
107843.0,100454.0
107813.0,100447.0
107712.0,100397.0
107611.0,100345.0
107472.0,100303.0
107285.0,100231.0
107162.0,100166.0
107019.0,100148.0
106901.0,100097.0
106803.0,100055.0
106754.0,100048.0
106695.0,100029.0
106646.0,100033.0
106642.0,100013.0
106630.0,100006.0
106603.0,100010.0
106622.0,100013.0
106628.0,100011.0
106620.0,100023.0
106625.0,99994.0
106652.0,100021.0
106655.0,100025.0
106666.0,100030.0
106698.0,100044.0
106702.0,100020.0
106748.0,100044.0
106728.0,100043.0
106767.0,100042.0
106767.0,100061.0
106790.0,100058.0
106857.0,100103.0
106875.0,100115.0
106914.0,100105.0
106973.0,100134.0
106988.0,100146.0
107028.0,100154.0
107054.0,100178.0
107072.0,100186.0
107096.0,100171.0
107145.0,100198.0
107142.0,100217.0
107137.0,100205.0
107164.0,100195.0
107132.0,100206.0
107129.0,100207.0
107154.0,100198.0
107112.0,100199.0
107096.0,100187.0
107112.0,100174.0
107074.0,100183.0
107059.0,100181.0
107077.0,100168.0
107036.0,100172.0
107036.0,100169.0
107051.0,100151.0
107030.0,100162.0
107019.0,100143.0
107012.0,100121.0
107016.0,100153.0
107022.0,100147.0
107025.0,100124.0
107032.0,100149.0
107050.0,100153.0
107054.0,100146.0
107054.0,100151.0
107081.0,100173.0
107079.0,100156.0
107118.0,100185.0
107088.0,100199.0
107139.0,100186.0
107141.0,100180.0
107137.0,100200.0
107179.0,100211.0
107175.0,100196.0
107172.0,100214.0
107221.0,100224.0
107228.0,100220.0
107215.0,100228.0
107253.0,100239.0
107266.0,100233.0
107273.0,100249.0
107315.0,100263.0
107331.0,100265.0
107318.0,100275.0
107365.0,100276.0
107370.0,100271.0
107362.0,100289.0
107392.0,100284.0
107403.0,100292.0
107417.0,100300.0
107437.0,100302.0
107455.0,100316.0
107448.0,100327.0
107474.0,100314.0
107492.0,100313.0
107482.0,100319.0
107498.0,100323.0
107515.0,100332.0
107501.0,100342.0
107509.0,100319.0
107514.0,100323.0
107509.0,100334.0
107519.0,100333.0
107531.0,100335.0
107529.0,100340.0
107547.0,100336.0
107578.0,100327.0
107551.0,100338.0
107563.0,100324.0
107606.0,100356.0
107588.0,100350.0
107632.0,100347.0
107621.0,100370.0
107647.0,100380.0
107690.0,100366.0
107669.0,100389.0
107682.0,100392.0
107683.0,100361.0
107698.0,100391.0
107711.0,100400.0
107718.0,100375.0
107720.0,100404.0
107723.0,100407.0
107717.0,100369.0
107727.0,100402.0
107705.0,100397.0
107665.0,100345.0
107603.0,100352.0
107510.0,100310.0
107368.0,100230.0
107275.0,100219.0
107106.0,100158.0
106954.0,100069.0
106856.0,100068.0
106746.0,100010.0
106641.0,99965.0
106618.0,99971.0
106544.0,99964.0
106535.0,99943.0
106469.0,99937.0
106451.0,99930.0
106465.0,99929.0
106423.0,99907.0
106437.0,99921.0
106461.0,99898.0
106452.0,99921.0
106483.0,99919.0
106480.0,99946.0
106536.0,99963.0
106542.0,99953.0
106549.0,99991.0
106597.0,99988.0
106618.0,99991.0
106628.0,100012.0
106665.0,100022.0
106679.0,100020.0
106682.0,100035.0
106747.0,100041.0
106761.0,100048.0
106766.0,100065.0
106809.0,100076.0
106846.0,100076.0
106847.0,100095.0
106906.0,100103.0
106941.0,100115.0
106933.0,100130.0
106973.0,100127.0
107000.0,100127.0
106980.0,100141.0
107001.0,100143.0
106998.0,100133.0
106985.0,100130.0
106989.0,100128.0
106993.0,100121.0
106968.0,100133.0
106950.0,100109.0
106947.0,100114.0
106929.0,100111.0
106921.0,100106.0
106928.0,100109.0
106907.0,100087.0
106926.0,100096.0
106906.0,100092.0
106914.0,100076.0
106906.0,100080.0
106907.0,100078.0
106941.0,100102.0
106914.0,100101.0
106942.0,100083.0
106935.0,100113.0
106946.0,100121.0
106994.0,100106.0
106979.0,100114.0
107003.0,100111.0
107041.0,100142.0
107045.0,100155.0
107053.0,100135.0
107086.0,100161.0
107110.0,100173.0
107126.0,100159.0
107162.0,100193.0
107186.0,100223.0
107198.0,100217.0
107259.0,100218.0
107246.0,100233.0
107281.0,100243.0
107331.0,100241.0
107314.0,100260.0
107338.0,100259.0
107397.0,100263.0
107374.0,100276.0
107387.0,100261.0
107429.0,100277.0
107443.0,100293.0
107439.0,100283.0
107468.0,100294.0
107427.0,100279.0
107456.0,100282.0
107464.0,100262.0
107457.0,100285.0
107463.0,100289.0
107501.0,100305.0
107502.0,100306.0
107539.0,100302.0
107531.0,100322.0
107536.0,100306.0
107568.0,100326.0
107556.0,100323.0
107577.0,100309.0
107569.0,100333.0
107589.0,100337.0
107571.0,100339.0
107586.0,100344.0
107599.0,100342.0
107599.0,100343.0
107622.0,100354.0
107621.0,100351.0
107609.0,100351.0
107627.0,100347.0
107639.0,100346.0
107633.0,100358.0
107638.0,100365.0
107656.0,100354.0
107670.0,100364.0
107677.0,100369.0
107701.0,100371.0
107676.0,100390.0
107708.0,100377.0
107729.0,100390.0
107730.0,100390.0
107736.0,100382.0
107755.0,100398.0
107747.0,100406.0
107756.0,100389.0
107781.0,100403.0
107762.0,100400.0
107780.0,100404.0
107791.0,100363.0
107767.0,100391.0
107719.0,100368.0
107723.0,100364.0
107619.0,100330.0
107480.0,100257.0
107422.0,100248.0
107258.0,100169.0
107116.0,100120.0
106994.0,100079.0
106856.0,100035.0
106758.0,100000.0
106665.0,99977.0
106572.0,99958.0
106550.0,99923.0
106504.0,99927.0
106469.0,99921.0
106455.0,99880.0
106467.0,99916.0
106461.0,99942.0
106449.0,99936.0
106498.0,99923.0
106480.0,99939.0
106507.0,99940.0
106553.0,99944.0
106539.0,99959.0
106554.0,99965.0
106610.0,99965.0
106603.0,99978.0
